ALV-6000/E-WIN Data
Date :	"02.10.2018"
Time :	"12:23:05"
Samplename : 	""
SampMemo(0) : 	""
SampMemo(1) : 	""
SampMemo(2) : 	""
SampMemo(3) : 	""
SampMemo(4) : 	""
SampMemo(5) : 	""
SampMemo(6) : 	""
SampMemo(7) : 	""
SampMemo(8) : 	""
SampMemo(9) : 	""
Temperature [K] :	     298.16000
Viscosity [cp]  :	       0.89000
Refractive Index:	       1.33200
Wavelength [nm] :	     632.80000
Angle [°]       :	      90.00000
Duration [s]    :	        30
Runs            :	         1
Mode            :	"SINGLE AUTO CH0 "
MeanCR0 [kHz]   :	      57.85950
MeanCR1 [kHz]   :	       0.00000

"Correlation"
  1.25000E-004	 -9.82252E-001
  2.50000E-004	 -7.68794E-001
  3.75000E-004	 -2.38941E-001
  5.00000E-004	  2.13305E-001
  6.25000E-004	  4.50722E-001
  7.50000E-004	  5.54305E-001
  8.75000E-004	  6.04160E-001
  1.00000E-003	  6.46836E-001
  1.12500E-003	  6.51999E-001
  1.25000E-003	  6.62244E-001
  1.37500E-003	  6.67891E-001
  1.50000E-003	  6.72974E-001
  1.62500E-003	  6.73135E-001
  1.75000E-003	  6.76281E-001
  1.87500E-003	  6.85558E-001
  2.00000E-003	  6.93424E-001
  2.25000E-003	  6.75837E-001
  2.50000E-003	  6.73377E-001
  2.75000E-003	  6.70110E-001
  3.00000E-003	  6.94432E-001
  3.25000E-003	  6.73296E-001
  3.50000E-003	  6.74506E-001
  3.75000E-003	  6.86284E-001
  4.00000E-003	  6.76360E-001
  4.50000E-003	  6.79345E-001
  5.00000E-003	  6.77348E-001
  5.50000E-003	  6.74948E-001
  6.00000E-003	  6.80131E-001
  6.50000E-003	  6.66256E-001
  7.00000E-003	  6.74343E-001
  7.50000E-003	  6.75876E-001
  8.00000E-003	  6.77422E-001
  9.00000E-003	  6.64666E-001
  1.00000E-002	  6.69073E-001
  1.10000E-002	  6.62175E-001
  1.20000E-002	  6.63639E-001
  1.30000E-002	  6.63245E-001
  1.40000E-002	  6.66765E-001
  1.50000E-002	  6.62368E-001
  1.60000E-002	  6.60164E-001
  1.80000E-002	  6.53736E-001
  2.00000E-002	  6.49228E-001
  2.20000E-002	  6.45008E-001
  2.40000E-002	  6.45714E-001
  2.60000E-002	  6.40011E-001
  2.80000E-002	  6.36321E-001
  3.00000E-002	  6.32765E-001
  3.20000E-002	  6.31539E-001
  3.60000E-002	  6.27362E-001
  4.00000E-002	  6.18783E-001
  4.40000E-002	  6.14888E-001
  4.80000E-002	  6.09624E-001
  5.20000E-002	  6.02182E-001
  5.60000E-002	  5.99447E-001
  6.00000E-002	  5.93262E-001
  6.40000E-002	  5.88701E-001
  7.20000E-002	  5.76306E-001
  8.00000E-002	  5.64605E-001
  8.80000E-002	  5.54073E-001
  9.60000E-002	  5.41463E-001
  1.04000E-001	  5.31554E-001
  1.12000E-001	  5.21810E-001
  1.20000E-001	  5.13102E-001
  1.28000E-001	  5.01867E-001
  1.44000E-001	  4.82450E-001
  1.60000E-001	  4.66048E-001
  1.76000E-001	  4.48074E-001
  1.92000E-001	  4.32586E-001
  2.08000E-001	  4.15772E-001
  2.24000E-001	  3.99560E-001
  2.40000E-001	  3.83644E-001
  2.56000E-001	  3.69984E-001
  2.88000E-001	  3.42687E-001
  3.20000E-001	  3.16805E-001
  3.52000E-001	  2.93635E-001
  3.84000E-001	  2.71849E-001
  4.16000E-001	  2.52619E-001
  4.48000E-001	  2.32073E-001
  4.80000E-001	  2.15454E-001
  5.12000E-001	  2.00892E-001
  5.76000E-001	  1.72031E-001
  6.40000E-001	  1.47162E-001
  7.04000E-001	  1.26143E-001
  7.68000E-001	  1.08663E-001
  8.32000E-001	  9.40407E-002
  8.96000E-001	  8.11146E-002
  9.60000E-001	  6.94887E-002
  1.02400E+000	  6.03374E-002
  1.15200E+000	  4.44053E-002
  1.28000E+000	  3.25186E-002
  1.40800E+000	  2.48576E-002
  1.53600E+000	  1.92648E-002
  1.66400E+000	  1.44322E-002
  1.79200E+000	  9.85346E-003
  1.92000E+000	  7.36561E-003
  2.01600E+000	  5.70974E-003
  2.27200E+000	  3.42842E-003
  2.52800E+000	  4.45073E-003
  2.78400E+000	  2.80074E-003
  3.04000E+000	 -4.69341E-005
  3.29600E+000	 -1.90281E-003
  3.55200E+000	 -4.34073E-003
  3.80800E+000	 -4.76510E-003
  4.06400E+000	 -3.86323E-003
  4.57600E+000	 -4.25751E-003
  5.08800E+000	 -5.28886E-003
  5.60000E+000	 -2.95708E-003
  6.11200E+000	 -1.07717E-003
  6.62400E+000	 -1.26334E-003
  7.13600E+000	 -3.24995E-003
  7.64800E+000	 -2.71536E-003
  8.16000E+000	 -6.57567E-004
  9.18400E+000	  1.05952E-004
  1.02080E+001	  2.17931E-003
  1.12320E+001	  1.58346E-003
  1.22560E+001	  3.06710E-003
  1.32800E+001	  4.10178E-003
  1.43040E+001	  1.11921E-003
  1.53280E+001	  1.62621E-003
  1.63520E+001	  8.12456E-004
  1.84000E+001	  2.49670E-003
  2.04480E+001	  5.14085E-003
  2.24960E+001	  4.88144E-003
  2.45440E+001	 -4.32697E-004
  2.65920E+001	 -5.08110E-003
  2.86400E+001	 -2.07179E-003
  3.06880E+001	  5.04092E-004
  3.27360E+001	  2.29026E-003
  3.68320E+001	 -1.44692E-003
  4.09280E+001	  5.74796E-004
  4.50240E+001	  5.23805E-004
  4.91200E+001	 -1.58405E-003
  5.32160E+001	 -2.95954E-004
  5.73120E+001	 -1.04041E-004
  6.14080E+001	 -3.08150E-003
  6.55040E+001	  7.96639E-004
  7.36960E+001	  1.56921E-004
  8.18880E+001	 -2.28765E-004
  9.00800E+001	  6.66952E-004
  9.82720E+001	 -9.03398E-004
  1.06464E+002	  8.80373E-004
  1.14656E+002	 -1.41849E-003
  1.22848E+002	  7.38013E-004
  1.31040E+002	 -6.52186E-004
  1.47424E+002	  9.20576E-004
  1.63808E+002	 -3.01174E-004
  1.80192E+002	 -5.36794E-004
  1.96576E+002	 -3.47015E-004
  2.12960E+002	  7.51055E-004
  2.29344E+002	 -2.59429E-004
  2.45728E+002	  5.33115E-005
  2.62112E+002	 -1.25695E-003
  2.94880E+002	  2.06166E-004
  3.27648E+002	 -3.31311E-004
  3.60416E+002	 -1.13387E-003
  3.93184E+002	 -1.45585E-003
  4.25952E+002	  5.73542E-004
  4.58720E+002	 -1.32961E-003
  4.91488E+002	  2.64353E-005
  5.24256E+002	  3.29526E-004
  5.89792E+002	  3.55686E-005
  6.55328E+002	  1.78726E-004
  7.20864E+002	  5.98865E-004
  7.86400E+002	 -3.01434E-004
  8.51936E+002	  2.51813E-004
  9.17472E+002	 -3.50578E-004
  9.83008E+002	 -9.73189E-004
  1.04854E+003	 -2.91229E-004
  1.17962E+003	 -4.76421E-004
  1.31069E+003	  8.93008E-005
  1.44176E+003	  4.71247E-005
  1.57283E+003	  1.09755E-004
  1.70390E+003	  1.72692E-004
  1.83498E+003	 -2.10799E-004
  1.96605E+003	 -2.62516E-004
  2.09712E+003	 -3.17552E-004
  2.35926E+003	  1.19769E-004
  2.62141E+003	 -3.38333E-005
  2.88355E+003	 -2.58201E-004
  3.14570E+003	 -8.47616E-005
  3.40784E+003	  7.25013E-006
  3.66998E+003	  1.44086E-004
  3.93213E+003	 -2.05933E-005
  4.19427E+003	  1.10230E-004
  4.71856E+003	  2.38538E-004
  5.24285E+003	 -3.29359E-005
  5.76714E+003	 -1.18003E-004
  6.29142E+003	  4.83568E-005
  6.81571E+003	  7.51925E-006
  7.34000E+003	 -3.47355E-004
  7.86429E+003	 -9.14366E-005

"Count Rate"
       0.11719	      61.77345
       0.23438	      58.43135
       0.35156	      57.01244
       0.46875	      56.83295
       0.58594	      56.46540
       0.70313	      56.81585
       0.82031	      60.91015
       0.93750	      59.05532
       1.05469	      55.35421
       1.17188	      61.09819
       1.28906	      65.25233
       1.40625	      56.44830
       1.52344	      47.83233
       1.64063	      54.02934
       1.75781	      54.19174
       1.87500	      64.50014
       1.99219	      52.12322
       2.10938	      56.57652
       2.22656	      52.15741
       2.34375	      53.38826
       2.46094	      57.04663
       2.57813	      59.28611
       2.69531	      61.15803
       2.81250	      57.30306
       2.92969	      65.32925
       3.04688	      58.94420
       3.16406	      53.11474
       3.28125	      61.57686
       3.39844	      64.26935
       3.51563	      54.69605
       3.63281	      55.37131
       3.75000	      47.61864
       3.86719	      60.67936
       3.98438	      61.45719
       4.10156	      55.58500
       4.21875	      52.85831
       4.33594	      56.76456
       4.45313	      59.03822
       4.57031	      60.93579
       4.68750	      61.21786
       4.80469	      62.20938
       4.92188	      57.95268
       5.03906	      55.01231
       5.15625	      56.23462
       5.27344	      55.96109
       5.39063	      58.30313
       5.50781	      56.65345
       5.62500	      59.10661
       5.74219	      53.12329
       5.85938	      56.81585
       5.97656	      54.01224
       6.09375	      57.38854
       6.21094	      51.09751
       6.32813	      47.57590
       6.44531	      56.69618
       6.56250	      52.02920
       6.67969	      57.15775
       6.79688	      57.73044
       6.91406	      63.80778
       7.03125	      64.96171
       7.14844	      55.40550
       7.26563	      57.61932
       7.38281	      55.07214
       7.50000	      56.59361
       7.61719	      75.21882
       7.73438	      55.21745
       7.85156	      54.61912
       7.96875	      59.21772
       8.08594	      58.86727
       8.20313	      57.68771
       8.32031	      61.66233
       8.43750	      57.98687
       8.55469	      59.26901
       8.67188	      61.61105
       8.78906	      56.18333
       8.90625	      58.52537
       9.02344	      55.32857
       9.14063	      59.19208
       9.25781	      64.67963
       9.37500	      61.12384
       9.49219	      54.67040
       9.60938	      54.98666
       9.72656	      54.16610
       9.84375	      67.44051
       9.96094	      53.79000
      10.07813	      50.37096
      10.19531	      59.25191
      10.31250	      55.84997
      10.42969	      54.98666
      10.54688	      56.80730
      10.66406	      55.90981
      10.78125	      55.66193
      10.89844	      60.76484
      11.01563	      59.35448
      11.13281	      59.85879
      11.25000	      61.55976
      11.36719	      54.69605
      11.48438	      55.16616
      11.60156	      56.25171
      11.71875	      57.16630
      11.83594	      63.37185
      11.95313	      62.46581
      12.07031	      65.86775
      12.18750	      53.93531
      12.30469	      55.34566
      12.42188	      53.09765
      12.53906	      56.74747
      12.65625	      60.64517
      12.77344	      53.55922
      12.89063	      54.30286
      13.00781	      61.15803
      13.12500	      58.62794
      13.24219	      53.81564
      13.35938	      66.24384
      13.47656	      60.74774
      13.59375	      61.44010
      13.71094	      63.95309
      13.82813	      63.02140
      13.94531	      48.44776
      14.06250	      57.81592
      14.17969	      53.23441
      14.29688	      58.27749
      14.41406	      66.26949
      14.53125	      56.90987
      14.64844	      53.35408
      14.76563	      54.92683
      14.88281	      58.88437
      15.00000	      57.59368
      15.11719	      59.75622
      15.23438	      61.49993
      15.35156	      56.58506
      15.46875	      52.92670
      15.58594	      59.34594
      15.70313	      57.06373
      15.82031	      51.89244
      15.93750	      57.55949
      16.05469	      51.11460
      16.17188	      58.75615
      16.28906	      54.44817
      16.40625	      69.93640
      16.52344	      59.46560
      16.64063	      68.59444
      16.75781	      52.93524
      16.87500	      62.64531
      16.99219	      56.77311
      17.10938	      59.38868
      17.22656	      59.81606
      17.34375	      55.56790
      17.46094	      54.77298
      17.57813	      58.65358
      17.69531	      58.28604
      17.81250	      67.94482
      17.92969	      63.22654
      18.04688	      60.93579
      18.16406	      52.96088
      18.28125	      55.19181
      18.39844	      57.26887
      18.51563	      59.89298
      18.63281	      60.01265
      18.75000	      61.60250
      18.86719	      54.37979
      18.98438	      54.93538
      19.10156	      57.60223
      19.21875	      58.15782
      19.33594	      55.37131
      19.45313	      56.16623
      19.57031	      56.29445
      19.68750	      59.47415
      19.80469	      55.49952
      19.92188	      63.05559
      20.03906	      59.13225
      20.15625	      52.61898
      20.27344	      64.03857
      20.39063	      61.79910
      20.50781	      60.12377
      20.62500	      58.80744
      20.74219	      48.03747
      20.85938	      58.70487
      20.97656	      55.37986
      21.09375	      69.79110
      21.21094	      59.51689
      21.32813	      57.08083
      21.44531	      61.97860
      21.56250	      50.15728
      21.67969	      60.98708
      21.79688	      61.79910
      21.91406	      61.58541
      22.03125	      60.38874
      22.14844	      49.24268
      22.26563	      52.54205
      22.38281	      60.54260
      22.50000	      56.75602
      22.61719	      60.07248
      22.73438	      59.73058
      22.85156	      53.23441
      22.96875	      59.65365
      23.08594	      59.14080
      23.20313	      55.29438
      23.32031	      59.25191
      23.43750	      59.68784
      23.55469	      60.61953
      23.67188	      55.14052
      23.78906	      61.02127
      23.90625	      47.98619
      24.02344	      57.37999
      24.14063	      56.44830
      24.25781	      59.22627
      24.37500	      60.46567
      24.49219	      57.79028
      24.60938	      54.74733
      24.72656	      57.67061
      24.84375	      52.88396
      24.96094	      62.77352
      25.07813	      55.26873
      25.19531	      55.39695
      25.31250	      64.38047
      25.42969	      55.53371
      25.54688	      59.02968
      25.66406	      55.00376
      25.78125	      57.85866
      25.89844	      56.15768
      26.01563	      58.67923
      26.13281	      60.76484
      26.25000	      62.13245
      26.36719	      55.23455
      26.48438	      49.67006
      26.60156	      62.94447
      26.71875	      55.74740
      26.83594	      58.41425
      26.95313	      58.15782
      27.07031	      54.03788
      27.18750	      56.48249
      27.30469	      56.90133
      27.42188	      64.14968
      27.53906	      56.35428
      27.65625	      60.59389
      27.77344	      65.61987
      27.89063	      58.14927
      28.00781	      56.36283
      28.12500	      54.08917
      28.24219	      53.39681
      28.35938	      64.79076
      28.47656	      47.05450
      28.59375	      55.65338
      28.71094	      60.13232
      28.82813	      61.82474
      28.94531	      55.34566
      29.06250	      57.06373
      29.17969	      60.96998
      29.29688	      56.86713
      29.41406	      56.65345
      29.53125	      51.79841
      29.64844	      63.03850
      29.76563	      57.50821
      29.88281	      61.97005
